# time,ax,ay,az,gx,gy,gz,temperature
0.000000000000000000e+00,1.260986328125000000e+00,7.705078125000000000e-01,-6.684570312500000000e-01,1.189634146341463463e+02,2.612195121951219789e+02,1.216463414634146432e+02,2.184764705882353297e+01
1.000000000000000021e-02,1.369628906250000000e+00,7.543945312500000000e-01,-6.269531250000000000e-01,1.298780487804878021e+02,2.480487804878048905e+02,1.204878048780487916e+02,2.175352941176470623e+01
2.000000000000000042e-02,1.512939453125000000e+00,8.073730468750000000e-01,-5.791015625000000000e-01,1.368902439024390389e+02,2.372560975609756326e+02,1.248780487804878163e+02,2.189470588235294457e+01
2.999999999999999889e-02,1.614501953125000000e+00,7.785644531250000000e-01,-5.107421875000000000e-01,1.395731707317073358e+02,2.244512195121951379e+02,1.347560975609756326e+02,2.184764705882353297e+01
4.000000000000000083e-02,1.698974609375000000e+00,6.967773437500000000e-01,-4.709472656250000000e-01,1.409146341463414842e+02,2.040243902439024453e+02,1.476219512195121979e+02,2.175352941176470623e+01
5.000000000000000278e-02,1.750488281250000000e+00,6.779785156250000000e-01,-4.702148437500000000e-01,1.415853658536585442e+02,1.775000000000000284e+02,1.598780487804878305e+02,2.180058823529412138e+01
5.999999999999999778e-02,1.813720703125000000e+00,7.312011718750000000e-01,-4.665527343750000000e-01,1.393292682926829400e+02,1.538414634146341484e+02,1.687195121951219789e+02,2.194176470588235617e+01
7.000000000000000666e-02,1.926513671875000000e+00,7.802734375000000000e-01,-4.096679687500000000e-01,1.364024390243902474e+02,1.303048780487804947e+02,1.755487804878048905e+02,2.184764705882353297e+01
8.000000000000000167e-02,2.051025390625000000e+00,7.753906250000000000e-01,-3.278808593750000000e-01,1.348170731707317316e+02,1.060365853658536679e+02,1.815853658536585442e+02,2.189470588235294457e+01
8.999999999999999667e-02,2.190429687500000000e+00,7.915039062500000000e-01,-2.631835937500000000e-01,1.324390243902439011e+02,8.091463414634147000e+01,1.873170731707317316e+02,2.184764705882353297e+01
1.000000000000000056e-01,2.307861328125000000e+00,7.700195312500000000e-01,-2.009277343750000000e-01,1.296951219512195337e+02,5.060975609756098237e+01,1.919512195121951379e+02,2.184764705882353297e+01
1.100000000000000006e-01,2.391601562500000000e+00,6.999511718750000000e-01,-8.593750000000000000e-02,1.259146341463414700e+02,1.780487804878048763e+01,1.992073170731707421e+02,2.180058823529412138e+01
1.199999999999999956e-01,2.465576171875000000e+00,7.353515625000000000e-01,-6.152343750000000000e-02,1.204878048780487916e+02,-1.713414634146341697e+01,2.104268292682926926e+02,2.184764705882353297e+01
1.300000000000000044e-01,2.509277343750000000e+00,7.956542968750000000e-01,-1.708984375000000000e-03,1.103658536585365937e+02,-5.390243902439024737e+01,2.243292682926829400e+02,2.175352941176470623e+01
1.400000000000000133e-01,2.037841796875000000e+00,1.141357421875000000e+00,1.743164062500000000e-01,5.506097560975609895e+01,-1.687195121951219789e+02,2.837804878048780779e+02,2.189470588235294457e+01
1.499999999999999944e-01,1.876464843750000000e+00,1.239013671875000000e+00,1.655273437500000000e-01,4.347560975609756184e+01,-1.850609756097561274e+02,2.962195121951219789e+02,2.184764705882353297e+01
1.600000000000000033e-01,1.663330078125000000e+00,1.395019531250000000e+00,1.596679687500000000e-01,3.347560975609756184e+01,-1.950609756097561274e+02,3.064634146341463747e+02,2.194176470588235617e+01
1.700000000000000122e-01,1.461914062500000000e+00,1.430908203125000000e+00,1.347656250000000000e-01,2.463414634146341697e+01,-1.998780487804878305e+02,3.145121951219512653e+02,2.180058823529412138e+01
1.799999999999999933e-01,1.225830078125000000e+00,1.453125000000000000e+00,1.115722656250000000e-01,2.213414634146341697e+01,-2.025609756097561274e+02,3.181097560975609895e+02,2.184764705882353297e+01
1.900000000000000022e-01,1.015380859375000000e+00,1.446289062500000000e+00,7.153320312500000000e-02,2.256097560975609895e+01,-2.017073170731707421e+02,3.159756097560975832e+02,2.175352941176470623e+01
2.000000000000000111e-01,8.425292968750000000e-01,1.421386718750000000e+00,8.544921875000000000e-03,2.487804878048780566e+01,-1.965243902439024453e+02,3.082317073170731874e+02,2.180058823529412138e+01
2.099999999999999922e-01,7.248535156250000000e-01,1.379150390625000000e+00,-1.464843750000000000e-03,2.798780487804878447e+01,-1.888414634146341768e+02,2.965853658536585726e+02,2.180058823529412138e+01
2.200000000000000011e-01,6.474609375000000000e-01,1.310302734375000000e+00,-5.419921875000000000e-02,2.908536585365854066e+01,-1.796341463414634347e+02,2.815243902439024737e+02,2.180058823529412138e+01
2.300000000000000100e-01,6.008300781250000000e-01,1.227294921875000000e+00,-1.103515625000000000e-01,2.664634146341463605e+01,-1.723780487804878305e+02,2.642682926829268695e+02,2.189470588235294457e+01
2.399999999999999911e-01,5.334472656250000000e-01,1.104248046875000000e+00,-1.501464843750000000e-01,2.121951219512195408e+01,-1.720121951219512368e+02,2.467073170731707421e+02,2.180058823529412138e+01
2.500000000000000000e-01,4.553222656250000000e-01,9.870605468750000000e-01,-1.672363281250000000e-01,1.713414634146341697e+01,-1.803048780487804947e+02,2.306097560975609895e+02,2.180058823529412138e+01
2.600000000000000089e-01,3.027343750000000000e-01,9.140625000000000000e-01,-1.420898437500000000e-01,1.798780487804878092e+01,-1.957926829268292863e+02,2.154878048780487916e+02,2.170647058823529463e+01
2.700000000000000178e-01,1.748046875000000000e-01,8.469238281250000000e-01,-2.385253906250000000e-01,1.945121951219512368e+01,-2.110975609756097811e+02,1.990243902439024453e+02,2.180058823529412138e+01
2.800000000000000266e-01,8.959960937500000000e-02,7.136230468750000000e-01,-3.166503906250000000e-01,1.365853658536585513e+01,-2.200000000000000284e+02,1.769512195121951379e+02,2.180058823529412138e+01
2.899999999999999800e-01,-2.270507812500000000e-02,6.005859375000000000e-01,-2.670898437500000000e-01,8.353658536585365724e+00,-2.215853658536585442e+02,1.527439024390243958e+02,2.184764705882353297e+01
2.999999999999999889e-01,-1.850585937500000000e-01,5.656738281250000000e-01,-2.041015625000000000e-01,6.341463414634146645e+00,-2.159756097560975832e+02,1.309146341463414842e+02,2.175352941176470623e+01
3.099999999999999978e-01,-2.905273437500000000e-02,3.872070312500000000e-01,-3.354492187500000000e-01,6.585365853658537105e+00,-1.990853658536585442e+02,1.090243902439024453e+02,2.175352941176470623e+01
3.200000000000000067e-01,7.666015625000000000e-02,-2.246093750000000000e-01,-5.100097656250000000e-01,-1.000000000000000000e+01,-1.846341463414634347e+02,8.097560975609756895e+01,2.189470588235294457e+01
3.300000000000000155e-01,8.447265625000000000e-02,-4.980468750000000000e-01,-4.128417968750000000e-01,-1.987804878048780566e+01,-1.807926829268292863e+02,5.621951219512195763e+01,2.184764705882353297e+01
3.400000000000000244e-01,1.904296875000000000e-02,-4.726562500000000000e-01,-2.504882812500000000e-01,-1.792682926829268553e+01,-1.796341463414634347e+02,3.506097560975609895e+01,2.184764705882353297e+01
3.500000000000000333e-01,2.661132812500000000e-02,-4.233398437500000000e-01,-2.221679687500000000e-01,-9.573170731707318026e+00,-1.767073170731707421e+02,2.091463414634146645e+01,2.180058823529412138e+01
3.599999999999999867e-01,1.245117187500000000e-01,-6.152343750000000000e-01,-4.489746093750000000e-01,-1.243902439024390283e+01,-1.573170731707317316e+02,7.500000000000000888e+00,2.184764705882353297e+01
3.699999999999999956e-01,3.591308593750000000e-01,-3.813476562500000000e-01,-4.133300781250000000e-01,-2.731707317073171026e+01,-1.025609756097561132e+02,-7.804878048780488520e+00,2.175352941176470623e+01
3.800000000000000044e-01,4.384765625000000000e-01,3.295898437500000000e-02,-2.875976562500000000e-01,-4.048780487804878447e+01,-5.201219512195122263e+01,-5.304878048780488520e+00,2.180058823529412138e+01
3.900000000000000133e-01,6.420898437500000000e-01,-8.764648437500000000e-02,-3.110351562500000000e-01,-4.695121951219512368e+01,-1.609756097560975618e+01,1.097560975609756184e+01,2.184764705882353297e+01
4.000000000000000222e-01,8.239746093750000000e-01,-2.739257812500000000e-01,-3.776855468750000000e-01,-5.865853658536585868e+01,2.603658536585366079e+01,2.792682926829268553e+01,2.175352941176470623e+01
4.100000000000000311e-01,8.671875000000000000e-01,-5.053710937500000000e-01,-5.993652343750000000e-01,-5.786585365853659368e+01,4.500000000000000711e+01,3.951219512195122263e+01,2.180058823529412138e+01
4.199999999999999845e-01,8.657226562500000000e-01,-5.930175781250000000e-01,-7.910156250000000000e-01,-4.420731707317073500e+01,4.378048780487804947e+01,4.280487804878049474e+01,2.184764705882353297e+01
4.299999999999999933e-01,8.254394531250000000e-01,-6.125488281250000000e-01,-9.067382812500000000e-01,-2.993902439024390461e+01,2.878048780487805303e+01,4.250000000000000711e+01,2.184764705882353297e+01
4.400000000000000022e-01,8.515625000000000000e-01,-6.826171875000000000e-01,-9.553222656250000000e-01,-1.189024390243902474e+01,-1.158536585365853799e+00,4.048780487804878447e+01,2.184764705882353297e+01
4.500000000000000111e-01,8.974609375000000000e-01,-6.950683593750000000e-01,-9.555664062500000000e-01,1.219512195121951414e+00,-4.213414634146342053e+01,3.780487804878048763e+01,2.189470588235294457e+01
4.600000000000000200e-01,9.396972656250000000e-01,-6.555175781250000000e-01,-8.923339843750000000e-01,8.292682926829268553e+00,-8.164634146341464316e+01,3.743902439024390816e+01,2.184764705882353297e+01
4.700000000000000289e-01,9.624023437500000000e-01,-5.856933593750000000e-01,-8.598632812500000000e-01,6.890243902439024737e+00,-1.062804878048780637e+02,4.091463414634147000e+01,2.180058823529412138e+01
4.799999999999999822e-01,9.133300781250000000e-01,-5.117187500000000000e-01,-8.354492187500000000e-01,3.048780487804878536e-01,-1.143292682926829400e+02,4.817073170731707421e+01,2.184764705882353297e+01
4.899999999999999911e-01,8.037109375000000000e-01,-5.209960937500000000e-01,-8.100585937500000000e-01,-9.329268292682927566e+00,-1.079878048780487916e+02,5.707317073170732158e+01,2.184764705882353297e+01
5.000000000000000000e-01,6.899414062500000000e-01,-5.756835937500000000e-01,-8.364257812500000000e-01,-1.396341463414634276e+01,-8.890243902439024737e+01,6.536585365853659368e+01,2.180058823529412138e+01
5.100000000000000089e-01,6.093750000000000000e-01,-6.044921875000000000e-01,-8.669433593750000000e-01,-1.353658536585365901e+01,-6.896341463414634632e+01,7.012195121951219789e+01,2.180058823529412138e+01
5.200000000000000178e-01,5.463867187500000000e-01,-6.005859375000000000e-01,-8.569335937500000000e-01,-9.085365853658537105e+00,-5.250000000000000711e+01,7.603658536585366789e+01,2.175352941176470623e+01
5.300000000000000266e-01,5.024414062500000000e-01,-5.893554687500000000e-01,-8.913574218750000000e-01,-2.317073170731707599e+00,-4.042682926829268553e+01,8.176829268292684105e+01,2.175352941176470623e+01
5.400000000000000355e-01,4.726562500000000000e-01,-5.764160156250000000e-01,-8.969726562500000000e-01,3.719512195121951414e+00,-3.109756097560975974e+01,8.597560975609756895e+01,2.184764705882353297e+01
5.500000000000000444e-01,4.650878906250000000e-01,-5.080566406250000000e-01,-8.737792968750000000e-01,4.451219512195121908e+00,-2.896341463414634276e+01,8.829268292682927211e+01,2.184764705882353297e+01
5.600000000000000533e-01,4.750976562500000000e-01,-4.406738281250000000e-01,-8.464355468750000000e-01,2.439024390243902662e-01,-3.469512195121951237e+01,8.969512195121951947e+01,2.180058823529412138e+01
5.700000000000000622e-01,4.448242187500000000e-01,-3.427734375000000000e-01,-8.789062500000000000e-01,-7.012195121951219967e+00,-4.750000000000000711e+01,9.140243902439024737e+01,2.184764705882353297e+01
5.799999999999999600e-01,3.757324218750000000e-01,-4.028320312500000000e-01,-9.011230468750000000e-01,-1.310975609756097704e+01,-6.317073170731708132e+01,9.121951219512196474e+01,2.180058823529412138e+01
5.899999999999999689e-01,3.476562500000000000e-01,-4.294433593750000000e-01,-9.025878906250000000e-01,-1.103658536585365901e+01,-7.493902439024391526e+01,9.018292682926829684e+01,2.189470588235294457e+01
5.999999999999999778e-01,3.310546875000000000e-01,-3.764648437500000000e-01,-9.062500000000000000e-01,-7.012195121951219967e+00,-7.993902439024391526e+01,9.341463414634147000e+01,2.170647058823529463e+01
6.099999999999999867e-01,3.203125000000000000e-01,-3.618164062500000000e-01,-8.889160156250000000e-01,-3.841463414634146645e+00,-8.097560975609756895e+01,9.957317073170732158e+01,2.180058823529412138e+01
6.199999999999999956e-01,2.578125000000000000e-01,-3.652343750000000000e-01,-8.930664062500000000e-01,-3.353658536585366168e+00,-7.890243902439024737e+01,1.070121951219512226e+02,2.189470588235294457e+01
6.300000000000000044e-01,2.226562500000000000e-01,-3.952636718750000000e-01,-8.505859375000000000e-01,-3.719512195121951414e+00,-7.304878048780489053e+01,1.116463414634146432e+02,2.180058823529412138e+01
6.400000000000000133e-01,1.987304687500000000e-01,-3.896484375000000000e-01,-8.559570312500000000e-01,-7.378048780487805658e+00,-6.243902439024390816e+01,1.160975609756097668e+02,2.189470588235294457e+01
6.500000000000000222e-01,1.679687500000000000e-01,-2.766113281250000000e-01,-8.457031250000000000e-01,-1.390243902439024559e+01,-4.670731707317073500e+01,1.226829268292682968e+02,2.184764705882353297e+01
6.600000000000000311e-01,1.032714843750000000e-01,-1.855468750000000000e-01,-9.460449218750000000e-01,-2.432926829268292934e+01,-3.396341463414634632e+01,1.270121951219512368e+02,2.180058823529412138e+01
6.700000000000000400e-01,2.124023437500000000e-02,-2.614746093750000000e-01,-1.020019531250000000e+00,-3.573170731707317316e+01,-2.810975609756097882e+01,1.256097560975609895e+02,2.180058823529412138e+01
6.800000000000000488e-01,-8.618164062500000000e-02,-2.758789062500000000e-01,-1.111083984375000000e+00,-4.060975609756098237e+01,-3.286585365853658658e+01,1.187195121951219647e+02,2.180058823529412138e+01
6.900000000000000577e-01,-1.755371093750000000e-01,-2.817382812500000000e-01,-1.147460937500000000e+00,-4.079268292682927211e+01,-4.512195121951219789e+01,1.073170731707317174e+02,2.180058823529412138e+01
7.000000000000000666e-01,-2.277832031250000000e-01,-2.409667968750000000e-01,-1.133300781250000000e+00,-3.914634146341463605e+01,-5.457317073170732158e+01,9.487804878048781632e+01,2.180058823529412138e+01
7.099999999999999645e-01,-2.624511718750000000e-01,-2.565917968750000000e-01,-1.076416015625000000e+00,-3.634146341463414842e+01,-5.701219512195122263e+01,8.341463414634147000e+01,2.180058823529412138e+01
7.199999999999999734e-01,-2.294921875000000000e-01,-2.177734375000000000e-01,-1.079101562500000000e+00,-3.609756097560975974e+01,-5.195121951219512368e+01,7.359756097560976684e+01,2.170647058823529463e+01
7.299999999999999822e-01,-1.940917968750000000e-01,-2.060546875000000000e-01,-1.073974609375000000e+00,-3.981707317073171026e+01,-4.359756097560975974e+01,6.658536585365854421e+01,2.180058823529412138e+01
7.399999999999999911e-01,-1.647949218750000000e-01,-2.338867187500000000e-01,-1.142333984375000000e+00,-4.542682926829268553e+01,-3.506097560975609895e+01,5.993902439024390816e+01,2.180058823529412138e+01
7.500000000000000000e-01,-1.542968750000000000e-01,-3.264160156250000000e-01,-1.202880859375000000e+00,-4.737804878048780921e+01,-3.036585365853658658e+01,5.304878048780488342e+01,2.180058823529412138e+01
7.600000000000000089e-01,-1.230468750000000000e-01,-4.553222656250000000e-01,-1.214599609375000000e+00,-4.024390243902439579e+01,-2.585365853658536750e+01,4.536585365853658658e+01,2.189470588235294457e+01
7.700000000000000178e-01,-6.127929687500000000e-02,-4.916992187500000000e-01,-1.231689453125000000e+00,-2.939024390243902829e+01,-1.670731707317073145e+01,3.750000000000000000e+01,2.180058823529412138e+01
7.800000000000000266e-01,3.393554687500000000e-02,-4.704589843750000000e-01,-1.220703125000000000e+00,-2.292682926829268553e+01,-5.914634146341463783e+00,3.121951219512195408e+01,2.175352941176470623e+01
7.900000000000000355e-01,1.328125000000000000e-01,-4.704589843750000000e-01,-1.199951171875000000e+00,-2.585365853658536750e+01,-5.487804878048780921e-01,2.414634146341463605e+01,2.184764705882353297e+01
8.000000000000000444e-01,2.065429687500000000e-01,-4.567871093750000000e-01,-1.203369140625000000e+00,-3.896341463414634632e+01,-3.536585365853659013e+00,1.426829268292683039e+01,2.184764705882353297e+01
8.100000000000000533e-01,2.373046875000000000e-01,-4.238281250000000000e-01,-1.219726562500000000e+00,-6.195121951219513079e+01,-9.268292682926830395e+00,9.756097560975610650e-01,2.184764705882353297e+01
8.200000000000000622e-01,2.863769531250000000e-01,-3.957519531250000000e-01,-1.236083984375000000e+00,-9.054878048780489053e+01,-1.408536585365853711e+01,-1.530487804878048941e+01,2.180058823529412138e+01
8.300000000000000711e-01,3.552246093750000000e-01,-3.845214843750000000e-01,-1.233886718750000000e+00,-1.157317073170731874e+02,-1.512195121951219612e+01,-3.060975609756097882e+01,2.180058823529412138e+01
8.399999999999999689e-01,4.609375000000000000e-01,-3.271484375000000000e-01,-1.280517578125000000e+00,-1.343902439024390389e+02,-1.103658536585365901e+01,-3.993902439024390816e+01,2.180058823529412138e+01
8.499999999999999778e-01,5.764160156250000000e-01,-2.980957031250000000e-01,-1.311035156250000000e+00,-1.443292682926829400e+02,-4.878048780487805325e-01,-4.073170731707317316e+01,2.189470588235294457e+01
8.599999999999999867e-01,6.416015625000000000e-01,-2.080078125000000000e-01,-1.347900390625000000e+00,-1.482926829268292863e+02,1.298780487804878092e+01,-3.500000000000000000e+01,2.180058823529412138e+01
8.699999999999999956e-01,6.440429687500000000e-01,-1.391601562500000000e-01,-1.401367187500000000e+00,-1.484756097560975832e+02,2.810975609756097882e+01,-2.646341463414634276e+01,2.189470588235294457e+01
8.800000000000000044e-01,5.788574218750000000e-01,-1.081542968750000000e-01,-1.436523437500000000e+00,-1.437804878048780495e+02,4.000000000000000000e+01,-1.878048780487804947e+01,2.180058823529412138e+01
8.900000000000000133e-01,4.938964843750000000e-01,-8.886718750000000000e-02,-1.467041015625000000e+00,-1.323780487804878305e+02,4.768292682926829684e+01,-1.335365853658536750e+01,2.184764705882353297e+01
9.000000000000000222e-01,4.414062500000000000e-01,-5.981445312500000000e-02,-1.461181640625000000e+00,-1.131707317073170884e+02,5.439024390243903184e+01,-1.048780487804878092e+01,2.189470588235294457e+01
9.100000000000000311e-01,4.421386718750000000e-01,-3.417968750000000000e-03,-1.486328125000000000e+00,-9.280487804878049474e+01,5.957317073170732158e+01,-9.268292682926830395e+00,2.189470588235294457e+01
9.200000000000000400e-01,4.709472656250000000e-01,5.200195312500000000e-02,-1.557617187500000000e+00,-7.689024390243902474e+01,6.000000000000000711e+01,-7.926829268292683750e+00,2.175352941176470623e+01
9.300000000000000488e-01,4.323730468750000000e-01,2.441406250000000000e-04,-1.539062500000000000e+00,-6.274390243902439579e+01,5.439024390243903184e+01,-5.670731707317073322e+00,2.180058823529412138e+01
9.400000000000000577e-01,3.728027343750000000e-01,-4.028320312500000000e-02,-1.519531250000000000e+00,-4.518292682926829684e+01,4.963414634146342053e+01,-3.231707317073170938e+00,2.180058823529412138e+01
9.500000000000000666e-01,2.729492187500000000e-01,-1.391601562500000000e-02,-1.472900390625000000e+00,-2.603658536585366079e+01,4.969512195121951947e+01,-1.463414634146341653e+00,2.180058823529412138e+01
9.599999999999999645e-01,2.092285156250000000e-01,8.056640625000000000e-03,-1.412841796875000000e+00,-6.829268292682927566e+00,5.786585365853659368e+01,-2.012195121951219523e+00,2.189470588235294457e+01
9.699999999999999734e-01,2.180175781250000000e-01,-2.270507812500000000e-02,-1.348632812500000000e+00,1.048780487804878092e+01,7.371951219512195053e+01,-6.341463414634146645e+00,2.189470588235294457e+01
